Reference Amplitude (V)	6300Hz	6350Hz	6400Hz	6450Hz	6500Hz	6550Hz	6600Hz	6650Hz	6700Hz	6750Hz	6800Hz	6850Hz	6900Hz	6950Hz	7000Hz	7050Hz	7100Hz	7150Hz	7200Hz	7250Hz	7300Hz	7350Hz	7400Hz	7450Hz	7500Hz	7550Hz	7600Hz	7650Hz	7700Hz	7750Hz	7800Hz	7850Hz	7900Hz	7950Hz	8000Hz
0.02	0.035475	0.0363931	0.0321074	0.0394077	0.0497797	0.0396693	0.0473221	0.0500146	0.052796	0.0427124	0.0580187	0.0511787	0.0415671	0.0507371	0.0481776	0.0318072	0.0512471	0.0470804	0.0500682	0.0420305	0.0487416	0.057652	0.0401472	0.0516268	0.0652255	0.0567679	0.0442523	0.0454879	0.0552006	0.0594363	0.0827826	0.0696936	0.0667305	0.0461509	0.0531778
0.023	0.030188	0.0316571	0.0436848	0.0471946	0.0370829	0.0387561	0.0509787	0.0390972	0.0492338	0.0448577	0.0348878	0.0337707	0.0492228	0.0501209	0.0462477	0.0412403	0.0530809	0.0545868	0.0615973	0.0590894	0.0558208	0.0463778	0.0472395	0.0534486	0.0634759	0.0442928	0.0496758	0.0592353	0.0473464	0.0466263	0.0511646	0.0531789	0.0499187	0.0671901	0.0417392
0.026	65.3344	19.9777	221.139	136.991	113.756	99.4294	90.9585	86.3024	81.2833	66.2048	64.4559	60.6564	42.0959	52.5849	54.477	50.9116	40.4631	14.9693	142.731	90.3415	76.5695	71.022	67.5202	63.8036	60.1979	58.4609	56.2412	53.8681	53.3321	51.1386	49.9264	47.949	40.7528	48.6181	44.8424
0.029	100.048	29.3693	333.041	211.368	174.098	155.025	140.51	131.683	127.052	105.82	100.766	95.7704	88.7706	81.3353	85.9547	80.5974	64.5077	22.4144	216.293	140.808	118.42	111.782	105.49	99.7032	94.6981	92.2937	86.8781	84.7485	83.5641	79.1598	78.689	75.3561	64.8342	77.2312	70.8324
0.032	120.121	35.653	397.508	257.259	212.014	186.683	170.928	163.47	151.553	129.515	122.02	115.274	107.138	98.4127	103.207	95.9973	76.8353	26.9843	258.134	169.564	143.007	135.696	127.04	119.899	112.805	111.622	106.7	102.978	101.341	97.7765	94.7634	90.0105	78.7393	92.0099	85.1491
0.035	142.507	42.1427	456.888	301.981	251.92	223.102	201.484	193.256	183.516	154.047	147.893	136.799	126.732	116.22	124.148	113.414	90.6652	32.0107	302.069	198.524	169.471	158.158	152.961	141.733	135.118	131.696	125.566	121.822	118.451	115.59	112.963	107.416	94.059	108.509	101.973
0.038	164.445	51.5651	525.584	349.586	290.319	256.941	237.901	223.599	212.106	177.846	172.434	159.236	149.57	134.734	143.637	133.602	106.324	37.199	346.724	229.544	196.522	183.349	174.823	164.789	158.865	151.488	147.546	142.172	137.719	135.519	131.855	126.179	107.158	127.019	117.157
0.041	189.316	66.2365	591.392	400.119	336.477	297.133	274.795	254.741	242.536	203.777	198.931	182.544	169.147	155.992	165.295	152.073	121.871	42.5394	395.838	260.771	225.057	211.77	200.806	192.795	183.078	174.85	168.027	163.437	158.608	154.139	149.485	142.64	127.434	145.724	136.259
0.044	213.679	98.2526	663.186	446.058	372.144	340.215	307.371	288.764	276.563	233.98	226.727	208.215	194.755	178.793	188.597	172.687	136.078	49.1327	431.27	290.678	252.515	235.308	227.824	213.525	205.874	199.999	193.005	184.92	180.136	174.647	169.655	164.434	147.238	164.186	153.744
0.047	237.702	182.323	733.374	493.845	417.776	376.201	343.158	329.113	308.79	262.06	253.269	235.458	217.771	200.583	211.71	192.891	153.923	55.2299	485.576	327.16	283.137	265.164	255.085	244.788	230.921	224.611	215.423	205.608	203.451	198.364	189.556	184.199	170.964	185.064	172.063
0.05	262.759	504.177	802.424	552.099	460.126	415.651	378.848	362.034	342.157	293.064	280.833	261.49	241.18	223.796	236.971	215.571	172.281	63.1188	534.54	362.924	312.248	296.488	282.771	270.07	254.541	249.236	239.745	228.114	225.14	221.307	214.426	204.24	191.758	204.717	192.415
0.053	287.2	1199.67	881.686	603.857	510.384	456.597	417.631	397.967	381.64	327.161	308.748	289.283	267.669	247.348	262.191	238.024	187.009	71.7705	584.351	398.44	345.258	325.738	309.33	296.438	282.925	269.204	263.347	250.953	246.637	240.505	235.144	204.255	215.295	225.342	213.758
0.056	311.764	1565	954.817	652.103	555.614	500.019	462.694	441.899	414.307	354.361	339.988	314.89	293.605	271.597	280.773	258.981	206.601	81.783	563.391	392.254	352.103	338.533	328.57	315.258	305.812	299.33	284.961	277.355	271.247	265.548	255.964	200.472	238.777	248.638	233.515
0.059	340.504	1809.7	1032.7	711.002	604.448	539.329	502.286	474.587	452.742	389.554	368.996	344.141	321.433	296.61	308.698	283.639	224.285	94.0328	608.614	425.81	385.233	362.427	355.357	341.101	334.936	321.921	313.432	301.275	294.88	289.654	281.779	202.762	262.602	265.711	252.891
0.062	366.398	2033.99	1108.75	769.125	650.484	584.682	544.624	515.947	485.866	424.221	400.877	375.895	348.63	324.134	332.524	306.754	243.955	111.113	654.902	461.666	418.593	396.155	382.28	366.157	362.808	350.468	341.706	326.468	319.322	309.708	302.963	201.599	284.706	286.185	274.916
0.065	394.307	2261.31	1196.97	820.063	701.975	629.211	582.77	557.228	529.069	456.09	436.031	405.46	378.022	346.833	359.057	326.095	261.931	137.075	705.735	504.523	447.387	426.298	410.677	396.733	388.185	377.211	364.845	348.538	339.326	331.08	325.859	202.029	306.113	310.123	295.345
0.068	419.481	2458.52	1267.8	894.471	758.92	680.655	638.338	599.416	563.075	495.812	470.003	437.903	404.85	368.944	352.334	317.281	249.038	168.703	768.244	540.159	478.548	458.609	445.318	421.983	418.792	402.305	389.777	373.017	365.353	356.257	344.526	245.651	333.606	330.162	313.473
0.071	449.286	2641.58	1369.42	952.052	811.017	724.699	678.295	643.965	608.648	528.081	502.732	461.257	430.853	393.967	374.001	339.774	263.142	210.721	814.515	578.993	515.053	495.045	473.065	455.435	445.329	424.208	416.654	399.726	390.89	381.473	371.168	313.167	357.169	356.93	338.691
0.074	477.92	2866.4	1441.52	1018.86	867.471	781.779	728.736	691.783	644.714	564.538	531.989	494.061	461.917	421.296	409.856	370.789	282.341	214.361	875.872	625.063	554.384	526.634	501.01	483.46	473.243	451.616	447.542	424.379	418.374	405.318	393.205	383.654	382.058	378.875	360.254
0.077	511.922	3041.7	1544.65	1085.91	926.288	835.734	774.464	739.732	693.443	603.665	571.094	530.525	495.089	433.055	440.368	393.907	307.599	257.014	938.899	670.732	592.183	566.877	540.036	510.462	505.602	487.231	471.93	451.947	436.295	433.171	420.348	402.245	406.914	402.393	379.248
0.08	541.848	3223.18	1638.54	1157.38	986.971	893.48	821.811	792.52	741.34	644.831	602.638	568.214	529.723	450.983	468.635	424.687	328.286	330.67	992.635	710.577	630.306	601.246	568.354	555.216	537.482	515.042	506.617	481.719	469.128	458.621	440.408	429.621	429.936	423.693	403.793
0.083	572.777	3414.19	1727.02	1223.41	1053.98	945.465	880.935	835.664	784.133	683.978	645.243	593.433	554.08	482.265	506.249	455.942	358.139	434.517	1066.31	760.394	664.788	637.62	600.479	586	564.414	546.392	533.201	507.846	493.683	482.178	471.433	453.022	458.177	446.557	429.787
0.086	605.804	3590.47	1831.29	1298.86	1113.94	1001.19	934.444	879.542	834.55	719.326	778.386	608.01	574.143	514.803	534.653	482.844	379.996	561.805	1123.25	807.525	715.455	675.393	639.017	627.345	597.596	578.815	564.589	537.188	521.791	508.889	499.355	478.196	486.485	474.732	452.887
0.089	640.736	3757.9	1933.4	1375.04	1170.37	1062.27	982.86	932.105	889.555	763.112	770.091	653.879	616.004	545.623	575.129	508.563	398.671	705.19	1181.17	862.984	757.667	715.859	676.158	651.69	632.169	612.502	594.658	568.247	553.012	538.146	527.382	506.674	514.187	503.493	474.974
0.092	673.682	3947.96	2024.87	1449.71	1238.88	1122.05	1041.29	995.278	927.85	810.542	800.418	648.122	656.794	587.25	604.179	543.627	427.463	844.108	1256.11	902.342	793.338	743.846	708.895	691.766	670.928	635.865	621.039	595.147	578.336	564.406	552.741	533.046	541.292	533.455	499.865
0.095	701.861	4081.79	2118.41	1530.98	1307.43	1181.79	1103.93	1043.93	982.665	1042.99	841.635	734.79	687.118	628.007	661.016	574.73	448.108	992.72	1321.86	951.104	837.49	796.642	753.168	729.354	697.193	672.155	658.294	626.332	616.276	594.23	579.713	560.504	566.291	558.775	527.949
0.098	746.864	4309.5	2254.66	1615.69	1369.77	1248	1166.39	1095.38	1044.66	996.754	874.474	789.133	741.234	665.046	690.796	607.826	466.668	1147.53	1383.98	1003.3	887.891	819.957	791.623	765.628	742.855	708.453	695.274	657.755	641.477	627.936	611.254	585.619	599.54	585.051	554.579
0.101	774.272	4476.37	2338.1	1682.94	1436.4	1306.35	1225.04	1161.28	1091.18	1042.83	925.703	840.626	782.693	692.939	733.248	645.008	498.397	1269.29	1469.07	1049.31	935.966	878.283	835.328	801.138	775.576	743.919	724.932	695.647	676.178	659.161	644.724	620.724	630.24	609.473	584.284
0.104	809.595	4638.44	2456.23	1759.32	1515.16	1380.86	1287.24	1215.14	1148.48	1099.99	982.573	817.857	828.806	740.9	790.625	678.824	529.749	1401.99	1523.74	1106.71	975.513	922.33	880.059	836.389	814.215	781.066	756.942	725.794	712.948	686.959	671.534	649.54	661.057	644.752	610.958
0.107	839.502	4832.17	2572.57	1856.32	1594.44	1451.98	1352.7	1266.21	1209.57	1137.89	1034.67	821.11	855.764	772.19	826.345	709.516	556.29	1491.6	1605.52	1165.1	1030.25	967.115	906.044	876.957	852.684	814.476	802.025	760.607	742.274	724.028	705.745	681.929	693.424	680.842	639.634
0.11	880.037	5007.79	2675.74	1941.25	1664.51	1502.27	1416.26	1336.01	1264.32	1171.13	1080.17	815.761	895.295	802.398	877.419	748.197	592.733	1615.6	1665.46	1216.83	1072.08	1019.64	948.922	918.871	889.128	859.267	833.533	794.876	776.716	758.126	740.326	709.694	726.97	711.271	671.424
0.113	923.723	5203.4	2796.02	2028.88	1741.61	1579.12	1477.94	1393.72	1310.74	1230.45	1131.67	810.189	944.087	839.485	907.299	784.997	604.436	1733.87	1754.4	1280.98	1108.81	1072.1	994.64	964.796	927.829	890.835	871.927	841.891	818.14	801.111	768.565	743.697	759.822	745.045	703.27
0.116	957.132	5373.52	2902.1	2124.39	1818.53	1654.33	1547.41	1470.18	1382.73	1263.16	1184.47	809.48	994.055	908.147	950.939	806.974	640.576	1837.72	1839.93	1348.24	1170.65	1116.13	1044.93	1002.42	976.135	933.429	911.302	880.12	848.406	828.595	816.555	774.353	795.166	768.69	732.345
0.119	988.861	5555.22	3022.25	2222.35	1907.86	1723.43	1610.45	1511.82	1440.43	1344.41	1228.74	809.696	1045.64	950.197	989.608	849.256	668.817	1941.85	1907.99	1403.2	1222.7	1164.81	1099.17	1059.07	1010.56	978.156	952.882	921.344	892.501	864.961	852.54	812.062	830.987	808.256	769.036
0.122	1034.48	5722.85	3126.06	2305.3	1983.64	1791.76	1681.86	1572.02	1501.04	1412.8	1321.79	865.567	1107.23	990.743	1032.46	879.469	700.98	2038.71	1991.71	1469.24	1274.72	1213.36	1151.83	1107.66	1047.29	1017.75	997.256	962.704	924.36	908.244	878.048	842.685	877.094	838.33	799.905
0.125	1066.87	5889.18	3263.56	2402.18	2065.79	1875.3	1757.74	1641.18	1803.36	1451.5	1340.73	1026.89	1141.02	1012.12	1092.86	921.342	727.366	2158.32	2072.56	1524.04	1323.36	1258.12	1204.01	1143.93	1092.13	1054.8	1028.65	1000.97	967.967	945.373	916.433	889.559	902.076	875.455	830.902
0.128	1108.47	6045.6	3371.52	2490.4	2153.72	1948.35	1839.39	1703.21	1697.96	1510.89	1403.55	1176.78	1186.12	1069.38	1123.74	971.251	753.011	2263.22	2159.87	1584.73	1386.13	1303.59	1244.07	1196.89	1147.34	1107.78	1078.29	1041.29	1007.01	984.556	959.933	922.075	945.853	918.996	864.123
