Reference Amplitude (V)	6300Hz	6350Hz	6400Hz	6450Hz	6500Hz	6550Hz	6600Hz	6650Hz	6700Hz	6750Hz	6800Hz	6850Hz	6900Hz	6950Hz	7000Hz	7050Hz	7100Hz	7150Hz	7200Hz	7250Hz	7300Hz	7350Hz	7400Hz	7450Hz	7500Hz	7550Hz	7600Hz	7650Hz	7700Hz	7750Hz	7800Hz	7850Hz	7900Hz	7950Hz	8000Hz
0.02	39.0135	37.8791	39.32	38.4656	37.3592	37.2322	39.0735	36.81	37.1613	38.426	38.1311	38.6464	38.8274	38.0694	38.3293	39.8474	39.8454	40.2879	38.6176	39.608	39.3021	40.7325	39.292	41.0759	39.8547	40.1757	41.065	38.4617	40.3161	39.7461	39.7915	39.3612	39.4445	39.2407	40.11
0.023	209.189	138.041	283.222	386.603	267.558	224.763	203.068	191.798	181.157	153.148	146.593	143.771	38.1754	131.672	124.731	129.896	122.193	107.4	66.5602	268.904	185.624	167.549	159.809	153.929	144.185	140.695	137.325	133.398	129.837	129.864	125.827	123.053	117.822	109.917	120.136
0.026	103.96	62.2855	316.837	211.075	184.703	164.82	153.099	134.915	143.571	125.863	122.581	110.537	95.5885	90.3661	108.068	104.428	86.0912	59.8247	193.337	153.823	124.622	130.744	126.55	121.682	101.029	111.317	96.8058	109.637	106.096	103.46	95.7597	99.7704	92.9365	99.3201	96.0393
0.029	141.167	67.4394	376.921	255.96	218.703	195.173	180.252	173.884	166.466	146.661	142.674	134.894	127.281	120.866	124.887	121.608	104.156	63.7965	255.22	181.401	159.268	151.891	146.096	140.182	135.186	133.009	128.661	127.404	123.112	119.777	118.626	115.701	104.621	117.279	110.251
0.032	162.546	75.7656	436.158	296.965	253.897	228.47	209.027	203.793	192.625	167.819	162.583	155.802	147.387	136.862	142.128	138.755	116.501	67.7302	297.679	209.382	183.184	174.917	167.027	160.457	154.576	151.476	146.154	142.069	142.437	136.694	135.038	130.918	117.971	131.353	126.021
0.035	181.734	83.1479	503.898	343.837	290.847	262.624	241.927	231.435	223.433	194.547	185.343	176.104	167.629	154.742	165.555	153.92	131.385	73.9481	345.773	238.299	211.96	201.578	192.953	184.19	175.669	172.511	168.436	162.271	159.291	154.961	151.184	146.594	131.763	147.137	141.466
0.038	207.043	92.3483	571.77	393.651	333.26	298.506	277.183	261.716	254.025	218.373	211.514	198.73	189.893	175.156	183.473	172.265	148.203	77.6627	388.085	270.821	237.075	225.201	216.512	208.698	199.473	193.64	186.983	182.111	179.491	174.808	172.369	166.581	149.63	167.117	156.666
0.041	228.858	109.348	635.872	437.206	374.719	337.556	312.537	296.918	280.04	244.345	238.958	225.159	211.272	196.859	207.694	193.708	164.204	83.6288	431.303	297.751	265.703	252.581	243.58	233.508	223.016	215.89	210.95	204.229	199.28	193.817	190.082	183.764	166.785	186.343	175.718
0.044	253.745	144.327	706.157	486.931	416.62	377.262	348.967	328.453	315.914	273.852	264.934	249.382	233.442	218.954	230.592	213.101	177.758	89.8155	474.021	331.989	294.335	276.472	270.774	254.669	247.487	240.868	232.163	224.302	222.792	217.678	211.122	202.184	187.321	204.461	194.36
0.047	277.7	252.089	773.249	538.371	455.338	419.747	385.974	365.906	346.585	303.751	292.988	275.346	255.907	239.137	251.498	235.29	191.382	95.6523	522.903	372.207	325.423	305.336	297.196	283.847	270.666	264.042	254.673	246.886	243.951	237.693	230.494	224.046	207.737	222.472	212.256
0.05	303.496	668.515	849.833	591.691	504.694	457.129	425.595	402.811	384.539	333.536	321.516	304.393	282.72	264.078	276.662	255.134	210.928	103.606	575.16	405.597	354.004	333.757	324.227	309.645	296.876	287.339	276.92	269.919	265.229	260.539	254.196	246.218	233.384	246.578	231.988
0.053	328.872	1311.85	929.625	647.458	551.757	502.688	464.998	442.527	423.487	365.717	350.233	330.835	308.301	288.264	302.033	277.188	227.929	112.799	627.975	446.309	389.781	367.278	349.893	336.99	323.114	312.321	304.652	292.611	289.583	283.07	275.58	242.978	256.89	264.548	254.454
0.056	357.249	1628.41	1003.6	697.393	593.78	543.686	503.396	477.768	454.615	397.37	379.686	353.622	331.55	311.497	321.88	297.187	249.412	123.475	1765.1	1109.78	846.84	669.058	509.328	410.537	350.599	341.454	331.701	317.672	313.478	304.118	299.294	244.955	278.091	287.452	273.864
0.059	386.936	1880.67	1069.84	745.258	642.928	584.578	539.324	517.762	495.567	429.93	410.14	387.273	361.075	334.094	347.379	322.116	266.088	137.194	1923.88	1256.44	966.954	767.182	596.075	490.844	375.081	367.151	356.904	341.297	337.36	330.408	318.596	244.012	302.972	303.786	294.068
0.062	408.043	2092.63	1163.74	810.492	693.52	626.038	588.825	558.338	533.112	471.319	443.936	416.266	393.152	361.435	376.312	344.469	284.292	154.129	2090.01	1402.86	1063.94	858.278	667.005	552.28	407.772	392.628	382.364	365.68	358.352	352.583	344.565	242.194	326.184	328.766	314.148
0.065	435.716	2313.84	1238.77	869.201	749.574	669.075	625.062	594.911	571.945	501.334	475.994	443.971	417.968	386.195	402.573	365.795	3452.76	178.94	2230.04	1498.98	1169.97	938.916	722.626	614.265	436.837	418.004	408.512	388.096	386.502	372.674	368.134	240.534	350.054	348.166	337.872
0.068	466.627	2540.44	1318.68	936.208	799.166	728.377	680.514	642.837	609.503	536.624	510.475	473.426	446.866	411.403	5868.81	4465.56	3074.93	213.112	2434.92	1610.88	1256.03	1026.27	773.28	650.68	465.643	441.484	433.858	417.399	411.49	397.239	386.57	285.359	374.745	371.38	355.575
0.071	487.074	2725.71	1406.36	1003.69	858.88	773.045	719.098	693.086	651.2	574.173	542.148	503.155	472.326	436.559	5922.49	4530.85	3199.72	257.042	2521.98	1722.67	1339.44	1106.25	802.691	683.716	497.001	471.566	460.962	442.517	434.142	420.88	415.177	355.286	393.038	397.845	380.499
0.074	525.275	2928.92	1497.2	1067.75	917.242	825.46	767.289	736.086	695.907	610.399	576.317	540.939	509.576	465.475	6194.26	4741.28	3403.74	2385.04	2733	1846.91	1411.74	1177.97	855.637	720.719	521.671	495.731	487.562	467.588	456.695	442.005	434.976	422.85	424.233	418.324	402.499
0.077	556.362	3099.09	1590.1	1139.35	969.963	880.532	820.253	784.635	736.245	645.036	619.049	574.203	536.561	8066.52	6563.53	4958.14	3572.21	2464.07	2852.72	1943.6	1482.93	1250.51	898.045	736.064	543.228	528.367	516.749	493.617	482.652	468.899	463.079	446.138	445.509	440.495	419.946
0.08	586.311	3289.65	1687.11	1208.53	1034.73	939.731	871.534	827.053	782.361	685.56	648.5	606.34	574.42	7998.42	6802.3	5199.84	3729.28	2675.51	2956.57	2039.49	1546.28	1265.18	920.604	771.728	575.551	555.594	547.456	523.696	506.78	496.197	486.28	470.533	470.794	470.534	445.771
0.083	622.115	3451.96	1774	1269.94	1102.54	988.902	922.512	884.887	823.099	728.199	687.338	12410.6	10484.5	8230.34	7096.7	5407.57	3897.35	2894.39	3114.63	2157.94	1613.05	1302.63	952.233	806.091	610.869	591.557	575.33	550.015	530.442	520.985	510.585	494.129	499.33	491.972	469.775
0.086	651.587	3666.3	1877.49	1341.09	1161.89	1045.56	979.956	928.741	878.611	759.264	16971.8	12238.1	10322	8534.43	7282.57	5612.09	4090.99	3197.79	3209.5	2263	1672.94	1355.96	984.324	841.033	643.65	619.715	606.195	579.626	563.311	549.677	539.136	519.969	526.236	516.688	496.431
0.089	683.042	3842.68	1993.63	1427.79	1225.43	1116.9	1034.11	981.324	929.628	812.552	16309.9	12536.7	10572.8	8795.34	7541.76	5850.1	4300.34	3524.05	3377.73	2361.27	1749.27	1385.93	1032.77	857.03	673.445	656.341	634.004	602.409	594.269	576.127	568.642	545.489	552.291	547.594	517.83
0.092	716.724	4004.43	2072.39	1494.36	1288.71	1172.76	1094.53	1036.88	979.127	855.495	16571.1	13116.9	10826.9	9138.42	7720.07	6027.6	4484.38	3750.2	3495	2409.73	1809.45	1423.11	1078.65	891.256	709.847	686.954	664.351	634.874	622.924	604.057	595.758	573.218	581.282	569.995	544.949
0.095	747.334	4205.23	2176.71	1573.24	1360.73	1229.37	1155.24	1098.28	1032.67	23080.7	16808	13317.6	11042.5	9418.52	8093.73	6201.49	4599.1	4113.09	3628.96	2523.05	1866.6	1476.86	1102.82	920.185	743.662	723.08	696.314	668.054	655.498	637.542	622.518	598.537	605.487	599.163	571.557
0.098	790.671	4386.81	2312.44	1662.08	1425.3	1290.47	1212.28	1139.03	1084.75	22133	17087.8	13681.2	11384.7	9755.7	8412.54	6325.7	4739.1	4380.36	3715.3	2578.11	1968.31	1506.83	1164.33	947.39	780.601	749.447	729.217	707.041	686.51	667.768	650.259	629.318	640.343	623.888	591.54
0.101	823.215	4562.71	2386.03	1744.99	1487.46	1351.68	1277.18	1209.84	1140.61	22153	17474.3	13922.8	11731.2	10020.3	8661.87	6525.12	4916.76	4631.85	3844.98	2686.54	2071.84	1565.39	1215.89	975.089	816.989	785.25	767.623	733.416	712.18	693.196	686.869	660.776	670.212	653.517	624.104
0.104	849.796	4737.17	2516.15	1822.86	1573.14	1422.65	1344.5	1261.6	1198.59	22414.5	17728.3	13721.8	11937.6	10442.9	8932.9	6726.88	5047.55	4895.9	3943.42	2750.63	2082.88	1658.73	1256.04	1000.56	858.61	819.583	797.761	774.049	750.923	731.709	711.87	690.111	701.024	684.369	657.825
0.107	889.593	4921.48	2629.97	1910.47	1648.21	1496.94	1401.83	1326.8	1254.64	22601	18093.7	13742.8	12213.3	10753.3	9072.21	6848.86	5136.91	5061.62	4133.95	2856.02	2123.47	1689.79	1273.43	1030.28	889.855	866.168	833.664	808.917	790.856	764.9	751.114	718.953	736.011	721.717	684.318
0.11	928.536	5089.25	2740.66	1991.7	1723.61	1568.95	1470.07	1384.12	1324.62	22842.9	18452.8	13498.7	12494.9	10945.8	9332.82	6984.17	5335.72	5304.87	4230.88	2937.26	2214.87	1761.33	1328.73	1054.57	932.606	900.205	876.073	846.033	824.184	802.049	782.042	750.46	768.428	748.341	713.177
0.113	963.531	5256.1	2866.2	2101.35	1791.7	1636.95	1539.89	1455.33	1364.15	23283.5	18805.9	13405	12825.8	11082.8	9478.82	7081.09	5473.14	5432.29	4299.77	3036.7	2265.86	1810.94	1383.49	1081.5	981.911	940.589	913.912	884.391	858.266	838.828	814.201	783.274	802.07	782.98	744.271
0.116	998.667	5442.33	2986.29	2176.15	1878.89	1708.59	1597.24	1516.43	1423.84	23566	19150.4	13255.8	13128.6	11356.1	9751.49	7185.45	5630.37	5608.02	4357.32	3101.55	2316.11	1872.3	1405.18	1129	1007.41	980.332	957.984	920.653	896.398	871.028	849.286	822.496	839.44	815.24	775.363
0.119	1044.01	5641.37	3102.87	2266.88	1952.7	1778.59	1660.51	1569.73	1490.22	23961.4	19426.7	13220.7	13349.7	11483.8	9856.73	7475.07	5815.71	5824.77	4496.92	3215.05	2394	1932.98	1452.04	1170.14	1057.54	1022.7	995.743	967.919	933.785	911.926	886.124	852.919	877.147	850.319	803.474
0.122	1074.64	5798.86	3229.87	2371.88	2054.84	1853.04	1729.87	1626.01	1544.03	24205.1	19792.7	14482.6	13587.6	11813.1	10026.7	7642.15	5943.92	5904.95	4617.39	3253.02	2468.42	1980.27	1513.92	1205.53	1095.1	1060.03	1033.48	999.422	967.456	953.969	920.665	892.94	902.163	879.644	842.222
0.125	1116.57	5933.27	3343.36	2464.64	2123.15	1926.95	1814.79	1707.88	33154	24527.7	20153.7	15134.7	13785.5	11929.6	10142	7777.41	6075.01	6120.73	4703.58	3306.76	2570.82	2017.72	1550.08	1223.75	1144.84	1099.79	1079.16	1042.99	1005.28	986.161	962.98	927.436	944.969	917.743	870.663
0.128	1151.62	6107.36	3464.31	2528.36	2227.82	1990.77	1899.96	1759.07	30239.7	24901.9	20489.2	16139.5	13957.6	12161.1	10296.3	7865.24	6187.75	6296.93	4858.89	3449.25	2638.3	2058.18	1584.57	1272.6	1189.13	1149.12	1118.52	1086.81	1051.12	1021.49	996.523	965.034	985.119	953.776	903.364
