Reference Amplitude (V)	6200Hz	6250Hz	6300Hz	6350Hz	6400Hz	6450Hz	6500Hz	6550Hz	6600Hz	6650Hz	6700Hz	6750Hz	6800Hz	6850Hz	6900Hz	6950Hz	7000Hz	7050Hz	7100Hz	7150Hz	7200Hz	7250Hz	7300Hz	7350Hz	7400Hz	7450Hz	7500Hz	7550Hz	7600Hz	7650Hz	7700Hz	7750Hz	7800Hz	7850Hz	7900Hz	7950Hz	8000Hz	8050Hz	8100Hz	8150Hz	8200Hz	8250Hz	8300Hz	8350Hz	8400Hz	8450Hz	8500Hz	8550Hz	8600Hz	8650Hz	8700Hz	8750Hz	8800Hz	8850Hz	8900Hz	8950Hz	9000Hz
0.02	14.1563	8.84632	7.7269	6.62127	5.98798	5.24876	4.52922	3.76322	4.80151	4.86222	4.57637	4.44007	3.18785	2.38376	1.47618	2.08346	7.19813	3.23292	1.48592	4.36492	4.09318	3.87209	3.05137	2.13519	1.87553	1.61445	1.36974	1.55571	1.25311	1.26958	1.08001	1.01281	0.859638	0.739098	0.550849	0.896399	0.810501	0.580165	0.489466	0.155396	1.22283	0.832228	0.678177	0.585077	0.634671	0.561081	0.550504	0.491091	0.418652	0.483725	0.396459	0.402213	0.409021	0.338377	0.308692	0.38241	0.243001
0.023	18.0274	11.6904	10.3762	9.18706	8.28553	7.20721	5.90349	5.11695	6.35164	6.40915	6.11068	5.9593	4.49063	2.93271	2.01285	2.81592	9.9024	4.37386	1.83462	6.05185	5.29615	5.23184	4.21424	2.91056	2.32493	2.13369	1.92633	1.88158	1.78209	1.62322	1.49342	1.42797	1.16738	1.23988	0.764978	1.23976	1.05287	0.773182	0.611301	0.172794	1.69327	1.0992	0.908803	0.797042	0.788057	0.694826	0.72291	0.683958	0.550337	0.517665	0.520629	0.434921	0.494524	0.42459	0.358411	0.377771	0.271889
0.026	21.9498	15.0398	13.3356	11.7531	10.0743	9.1054	7.50412	6.55749	8.204	8.17683	7.68797	7.75898	5.72992	3.7463	2.73765	3.74899	12.7026	5.76132	2.35718	7.22442	6.51964	6.72951	5.46898	3.59274	2.93202	2.83261	2.45282	2.42993	2.20213	2.0497	1.8117	1.7746	1.54468	1.42605	0.979113	1.63264	1.26324	1.07921	0.880785	0.254038	2.06963	1.27207	1.10054	1.02489	0.977424	0.988392	0.914426	0.818658	0.741038	0.721442	0.687774	0.607899	0.593338	0.541767	0.456096	0.496586	0.350759
0.029	26.3937	17.5257	16.4441	14.2646	12.7457	11.0004	8.90038	8.07443	10.0647	10.3257	9.66393	9.73104	7.03513	4.66281	3.33918	4.75332	15.384	7.09236	3.08686	8.84315	8.29778	7.99714	6.44606	4.40077	3.69394	3.28715	3.15738	2.95936	2.67205	2.41612	2.25798	2.11263	1.90338	1.64591	1.05132	1.94408	1.47898	1.28245	1.11179	0.245283	2.45628	1.68691	1.54757	1.32792	1.19715	1.10579	0.995701	0.987812	0.865261	0.847685	0.865577	0.686028	0.747421	0.719851	0.652143	0.555818	0.418385
0.032	29.9505	21.5017	19.0802	17.0802	15.0086	13.108	11.02	9.67231	12.112	12.1266	11.3906	11.3551	8.37804	5.88484	4.22777	6.07522	18.6693	8.44455	3.66119	10.0099	9.83294	9.43292	7.91601	5.18047	4.30819	4.00561	3.64613	3.5544	3.24939	2.95069	2.75732	2.3364	2.21906	2.07512	1.33628	2.31632	1.72624	1.5975	1.21987	0.290226	3.11548	2.02915	1.74778	1.57193	1.36625	1.29329	1.18825	1.04488	1.06701	0.9342	1.02641	0.864638	0.866417	0.841309	0.722565	0.597929	0.514004
0.035	34.8709	25.2581	23.2875	19.8331	17.7189	15.4453	12.653	11.257	14.4714	14.1109	13.2926	13.067	9.67921	6.71762	5.21751	7.32829	22.303	10.7538	4.39864	11.4025	11.2868	11.1219	9.33908	5.91209	5.12701	4.63204	4.31403	3.81905	3.86251	3.39176	3.12706	2.94749	2.50243	2.33879	1.63449	2.73167	2.0437	1.78222	1.43162	0.298101	3.51459	2.17755	1.96089	1.72161	1.65405	1.65807	1.56215	1.27215	1.13642	1.08192	1.03363	0.987629	0.962071	0.894836	0.96316	0.91967	0.624194
0.038	39.2032	28.8149	26.0332	22.7988	20.0061	17.5911	14.8805	12.8903	16.9464	16.5829	15.2689	14.6624	11.5384	7.90729	6.28385	8.63785	25.4782	12.6648	5.14981	13.1361	12.6017	12.2054	10.6015	7.15211	6.24182	5.65028	5.07664	4.91017	4.36287	3.97269	3.51911	3.29631	3.15006	2.74626	1.94553	3.19743	2.4291	2.17525	1.6253	0.326078	3.9914	2.71712	2.32513	2.19252	1.94817	1.77172	1.6561	1.54699	1.4667	1.30827	1.37066	1.12982	1.0698	1.13823	1.03965	0.826806	0.750366
0.041	43.6827	33.134	28.7522	26.2661	22.7798	19.4568	16.657	15.0732	19.0412	18.5325	17.8456	16.8754	12.7826	9.32512	7.15969	10.5871	29.6997	14.3734	6.27996	14.93	14.3062	14.2744	11.7768	8.11713	6.68025	6.33674	5.82883	5.20377	5.19396	4.69319	4.25216	3.79176	3.57563	3.06145	2.20336	3.5345	2.78923	2.55168	1.84684	0.461372	4.5958	2.91403	2.64021	2.27803	2.24523	2.03574	1.88468	1.84224	1.57326	1.45626	1.34126	1.38559	1.29479	1.26504	1.07835	1.11144	0.756993
0.044	47.9723	37.2949	33.0361	29.2137	25.4465	22.306	18.9084	16.7115	22.25	21.2733	20.0994	18.7144	14.545	11.1417	8.3083	12.4572	33.2522	16.535	7.1989	16.5136	15.9578	16.6856	13.2399	9.40265	7.5342	7.07435	6.54744	6.15255	5.79034	5.25629	4.9669	4.39432	4.19438	3.76565	2.49899	3.98949	3.30333	2.77573	2.13464	0.481076	5.12944	3.34476	2.8399	2.63514	2.52334	2.28945	2.01175	1.97917	1.78322	1.73558	1.61903	1.43219	1.49027	1.29679	1.15169	1.1607	0.884457
0.047	53.3027	42.0004	37.2898	32.7302	28.1837	25.6807	21.6102	19.0199	24.7128	24.0324	22.6018	20.9781	16.4945	12.375	9.63157	14.5462	34.672	18.807	8.30125	17.701	17.9398	18.4108	14.7624	10.3557	8.81126	8.06252	7.63845	6.93696	6.49893	6.09278	5.29605	5.0529	4.56107	3.9415	2.62063	4.55743	3.59256	3.01795	2.15127	0.541913	5.86477	3.70575	3.48932	3.08192	2.60603	2.51115	2.36451	2.17982	2.02979	1.83753	1.76691	1.73591	1.5535	1.42791	1.44398	1.38991	0.91104
0.05	58.0687	46.7425	40.8655	36.1039	32.3993	27.859	23.5922	21.145	27.8869	26.9923	24.8987	23.0605	18.2044	14.2289	10.9346	16.6677	38.607	21.1634	9.1598	19.1873	19.5319	19.4712	16.4155	11.4782	9.45164	8.72525	8.08093	7.74015	7.3182	6.47304	6.13403	5.46766	4.81703	4.38428	2.84315	5.23898	3.92874	3.45784	2.7136	0.648869	6.60947	4.30516	3.81576	3.3964	3.32161	2.84169	2.66573	2.41362	2.31792	2.10569	2.06274	1.85478	1.67653	1.68092	1.66472	1.43327	1.1197
0.053	62.4982	50.8531	45.0062	40.2289	35.3602	31.1866	25.816	22.7153	31.4004	29.8416	28.2417	25.4302	20.2207	15.9064	12.4499	19.4956	42.607	23.5398	10.6578	21.6948	21.125	22.1726	18.4601	12.6999	11.0774	9.82121	9.12514	8.36134	7.82554	7.46135	6.71563	6.26727	5.61615	4.84126	3.24195	5.64552	4.63546	3.70741	2.81485	0.753469	7.19237	4.75602	4.03196	3.51774	3.17516	3.27717	2.99058	2.58325	2.47867	2.30372	2.17599	1.92734	1.88049	1.70646	1.88613	1.477	1.25368
0.056	67.221	56.2979	49.707	44.3773	38.4343	34.185	28.79	25.8139	34.4882	32.98	30.8878	27.2266	22.3203	18.2069	14.211	21.6398	45.8182	25.9093	12.0579	23.1267	23.0978	24.2731	19.6091	14.3472	11.6807	10.5912	9.94097	9.38084	8.46452	7.85494	7.4371	6.66432	6.365	5.41797	3.59571	5.98433	5.04746	4.03552	3.07452	0.834236	7.94088	5.35527	4.46581	4.1122	3.6583	3.54687	3.21177	2.91937	2.71273	2.5629	2.42167	2.29181	2.23445	2.07786	1.88948	1.67136	1.30116
0.059	73.2485	60.1609	53.9382	47.7294	42.2098	36.9403	31.4326	28.5449	38.0417	36.1033	33.7217	30.3149	24.9341	20.4333	15.8967	37.329	50.5268	29.1219	13.6614	24.9411	24.8555	26.5487	22.4019	15.5173	13.1329	12.0803	11.2963	10.3304	9.60274	8.89363	8.10604	7.22759	6.67455	5.8578	3.98685	6.93967	5.40158	4.59275	3.35056	0.825263	8.58176	5.61679	4.94247	4.49467	4.14377	3.77911	3.56542	3.15601	3.0638	2.7869	2.58371	2.51279	2.28272	2.29975	2.01748	1.82061	1.28765
0.062	79.2719	65.8856	59.36	52.0699	46.4136	40.1161	34.6538	31.7307	42.4412	40.3737	37.0596	32.6497	27.5269	22.9463	17.5641	40.7046	55.1007	31.4609	14.9928	26.8053	26.6562	28.6054	24.2744	17.0015	13.8819	13.2681	12.4344	11.3315	10.7238	9.85355	8.83617	8.19529	6.96186	6.76177	4.30491	7.76296	5.93964	5.04443	3.79054	0.907332	9.34716	6.4319	5.55381	4.71481	4.6491	3.94193	3.86562	3.3922	3.2901	2.99635	2.79399	2.57555	2.48986	2.44211	2.33391	2.03542	1.57156
0.065	85.7341	71.4514	62.5257	56.7664	51.0194	42.8957	37.0396	34.9618	46.5863	43.6302	40.6184	34.3563	30.0209	24.8368	19.5606	45.8527	59.5738	34.5879	16.4144	28.6709	28.7839	32.0111	26.0686	18.8359	15.2466	14.188	13.1816	12.1804	11.4773	10.6042	9.65441	8.87037	8.0215	6.97121	4.75068	8.17788	6.74853	5.48377	4.00032	1.01866	10.5712	6.92991	5.76328	5.40111	4.76247	4.49897	4.11971	3.61849	3.55468	3.45179	3.20116	2.80118	2.70086	2.53421	2.44783	2.27594	1.70795
0.068	91.2113	77.5147	69.0526	61.6731	54.1123	47.6032	40.3639	36.832	50.6051	47.3934	44.0929	36.4462	32.7672	27.9622	21.1103	49.9215	63.8166	37.1278	17.9132	30.7238	30.4495	35.3607	28.2733	20.3093	17.2327	15.6156	14.0796	13.1333	12.369	11.303	10.1195	9.56411	8.2492	7.47645	5.01887	8.69022	6.93086	5.78279	4.20437	1.04855	10.8277	7.44725	6.26488	5.75147	5.21206	4.65696	4.386	4.06843	4.03465	3.52136	3.27091	3.19973	2.96394	2.70863	2.63003	2.41565	1.84436
0.071	96.3927	82.3888	73.8876	65.2328	58.8246	50.0577	42.8368	39.8604	54.9967	49.9378	46.889	39.0531	35.854	30.7532	23.0322	54.8195	68.7464	40.2999	19.5923	33.1836	32.9681	37.6711	30.5713	22.377	18.1786	16.6045	15.4176	14.6074	13.4914	12.3935	11.6266	10.285	9.29475	7.91923	5.46468	9.34694	7.62147	6.29201	4.90513	1.18069	11.6877	8.29409	6.90398	6.00174	5.65712	5.12928	4.90769	4.42246	4.22706	3.96568	3.85695	3.52012	3.10517	2.95775	2.78083	2.74706	1.80469
0.074	104.002	88.5181	79.2194	70.801	63.4884	54.9859	46.4095	43.7173	58.6677	55.2778	50.503	40.6922	39.0754	33.3263	24.9884	58.9627	73.5972	43.0188	21.4784	35.4481	34.5762	41.1677	32.2259	23.5389	19.431	18.1898	16.9161	15.0309	14.5004	13.2198	12.0783	11.1043	9.92052	8.6124	6.08985	10.4013	7.83717	6.66459	5.10095	1.34987	12.7914	8.69025	7.40606	6.50481	6.11471	5.82757	5.41794	4.77538	4.46539	4.22938	3.86526	3.75604	3.25789	3.20488	3.00428	2.82056	2.09862
0.077	110.707	95.4836	83.6866	76.1986	68.5159	58.8053	49.0658	47.4102	63.6012	59.3095	53.4462	42.1605	43.1207	36.3944	27.3778	62.9211	78.312	46.1719	23.3521	35.9477	37.1932	43.3603	34.7388	25.0426	21.7948	19.3962	18.0504	16.7606	15.5807	14.2374	13.1007	11.8552	10.6959	9.09952	6.43283	10.5283	8.62095	7.20404	5.53848	1.4644	13.4966	9.12804	7.84519	7.03464	6.45519	5.97794	5.48577	5.11434	4.73545	4.30656	4.16611	3.90091	3.65557	3.42546	3.25373	3.05297	2.1604
0.08	117.439	101.531	90.2513	81.5941	72.0363	63.8223	52.6464	50.1781	67.4508	63.0273	58.6082	44.0753	46.3558	39.7593	65.6765	67.8771	84.3653	49.5197	24.7409	38.5003	38.3582	47.6813	37.6001	27.0879	22.6075	21.2487	19.0518	17.9714	16.7398	15.2418	14.162	13.0334	11.5419	10.011	6.94578	11.5559	9.13377	7.98177	5.94646	1.53609	15.2389	10.1114	8.81526	7.50262	7.00884	6.49169	6.12657	5.4222	5.25781	4.69029	4.63051	4.26187	3.98236	3.79783	3.49228	3.37232	2.31734
0.083	124.239	107.347	95.3313	85.4332	75.6698	67.2669	56.7801	53.9757	74.0619	67.5652	61.7279	45.553	50.5932	42.9398	71.5186	73.7032	90.0664	52.3711	27.0329	40.7594	40.908	51.2914	40.5708	29.0607	24.7212	22.0363	19.8151	18.7822	17.6001	16.7154	15.3887	13.888	12.3204	10.6691	7.09	12.2855	9.78625	8.59726	6.19401	1.60656	15.6779	10.9441	8.67973	8.18091	7.5206	7.06756	6.64675	5.81623	5.39342	5.198	4.77595	4.69166	4.18056	4.04809	3.92257	3.46781	2.31875
0.086	130.887	113.41	100.554	91.1091	80.5687	71.0253	59.8949	57.5935	78.0148	71.7978	64.7245	46.378	54.9432	46.5581	75.9158	77.3706	93.9001	55.9198	28.796	42.4929	43.471	54.5749	43.0784	31.7529	26.2315	23.6634	22.1525	20.4227	19.1507	17.8661	15.666	14.816	13.0448	11.5403	7.62993	13.6548	10.6671	8.88343	6.67708	1.93832	17.0696	11.4883	9.85294	8.91509	7.8664	7.0331	6.92701	6.18856	5.76509	5.43946	4.94035	4.83371	4.62912	4.20822	4.02628	3.63827	2.68596
0.089	139.831	121.218	109.608	96.6817	85.7699	75.2916	64.9086	61.5552	84.2961	75.1024	69.2326	47.7257	58.6094	50.2149	81.1267	82.3652	99.0672	59.4654	30.6201	45.4342	44.81	58.3999	45.8422	33.1774	27.8302	25.5018	23.1087	21.9121	20.096	18.8257	17.18	15.2764	13.8621	12.3919	8.05364	14.2888	11.1839	9.82843	7.52782	1.97375	18.0043	12.1171	10.0791	9.24748	8.63179	7.86483	7.59732	6.73914	6.03424	5.83045	5.44239	5.13889	4.72435	4.45884	4.19209	3.9779	2.95342
0.092	144.215	127.5	115.243	102.328	90.7541	80.2337	68.0512	66.058	90.4503	81.231	73.3446	49.4793	63.6359	53.8423	86.8817	85.4383	106.124	62.8186	32.1888	47.3905	47.1402	63.358	48.1463	35.8952	29.8084	27.1979	24.6669	22.7911	22.2203	19.6916	18.7607	16.844	14.5431	13.0157	8.62851	15.3032	11.9098	10.1248	7.71904	2.22068	19.7191	12.8623	10.8295	9.96148	9.15669	8.60534	7.58664	7.04448	6.54895	6.15473	5.65497	5.43088	5.02373	4.70793	4.64109	4.02655	3.124
0.095	153.114	134.832	122.071	109.38	95.7568	84.4286	71.9444	70.6027	95.9826	85.1191	77.2838	52.7416	68.3138	57.7469	91.9878	93.7317	109.77	66.7944	34.3519	49.9545	48.8391	67.8179	51.4106	37.9132	31.3991	28.6787	26.6219	24.2571	23.0104	20.8001	19.2462	17.5119	15.6335	13.6771	9.39042	16.2269	13.0223	10.7835	8.34161	2.26814	20.0149	13.7915	11.4835	10.213	9.73013	8.77743	8.23777	7.66615	6.86368	6.6708	6.20666	5.59212	5.6423	5.00327	4.75542	4.42766	3.22519
0.098	160.545	143.365	127.287	113.853	102.019	88.6142	75.3446	74.4823	100.932	90.9546	80.7727	56.5284	73.1102	61.3052	100.797	99.2979	116.906	70.9366	35.5686	51.9731	51.2813	71.1181	54.4961	40.2844	33.1406	30.1339	27.822	25.6325	23.7864	21.7445	20.2619	18.5547	16.8898	14.8029	9.86131	16.7594	13.7202	11.5324	8.65152	2.53547	21.1566	14.3974	12.0471	10.8107	10.3031	9.16711	8.97141	7.77488	7.09914	6.79811	6.52177	5.97818	5.6993	5.28572	4.81114	4.75497	3.38047
0.101	170.327	149.085	133.723	120.607	106.287	92.2193	79.8851	79.864	108.026	96.193	84.9995	62.6784	78.6145	66.725	104.907	103.676	120.837	72.714	38.6183	53.8122	53.1819	76.378	57.368	41.9117	35.4005	32.3352	29.6906	27.7687	25.7907	23.3144	21.6364	19.4555	17.8338	15.4917	9.99295	17.8784	14.4436	11.8329	9.27339	2.84641	22.2052	15.55	12.8201	11.4296	10.5696	10.2039	9.1031	8.27776	7.74061	7.39541	6.87753	6.34992	6.36007	5.68894	5.15958	5.32479	3.57755
0.104	177.734	156.947	141.003	125.087	110.443	97.514	83.2436	84.9343	113.652	100.781	87.8234	68.9101	83.5576	70.8797	111.461	107.936	127.354	75.9813	40.7538	57.2012	56.875	81.15	60.7164	45.3465	37.7055	34.5103	31.5041	28.9174	27.0718	24.8446	22.7637	20.4965	18.7286	16.3272	10.5784	19.1345	14.7481	13.0996	9.663	2.92625	23.9594	15.9368	13.8709	12.1557	11.234	10.1437	9.88601	8.89008	8.10585	7.36092	7.38671	6.66206	6.48121	5.90202	5.67629	5.054	3.88564
0.107	185.42	165.703	149.294	133.383	117.221	102.208	88.3113	88.3559	119.017	105.705	91.5483	77.146	89.4617	177.012	114.682	117.668	134.699	80.4027	42.3896	59.0633	58.1405	85.9963	64.3803	47.807	40.2647	35.8597	32.9828	30.3069	28.263	26.2819	23.7017	21.8613	19.9042	16.8859	11.1622	20.2606	15.8694	13.2005	10.0892	3.09561	25.2232	16.8754	14.5165	12.6118	11.978	11.4411	10.2174	9.25124	8.84549	7.85066	7.29011	7.39475	6.35806	6.36165	5.82115	5.41061	3.95185
0.11	195.039	173.047	155.577	140.495	123.248	106.922	91.6596	94.9914	125.51	110.717	95.2175	85.7382	94.4712	182.62	122.809	121.025	140.475	82.7634	44.4437	61.3417	60.0294	92.2111	67.7566	49.7795	41.9988	37.738	35.019	32.7953	29.9226	27.3743	25.3933	22.5104	20.4411	18.4403	11.9616	21.0453	16.8325	14.1091	10.7491	3.54348	26.0797	18.2659	15.042	13.5623	12.6367	12.1705	11.222	9.70967	9.04182	8.69545	8.05661	7.47596	6.95653	6.51773	6.35412	5.83919	4.0395
0.113	202.189	180.302	162.234	146.653	128.995	112.25	95.2773	97.7563	131.346	115.997	97.2378	93.5876	102.26	188.578	128.382	130.886	145.514	87.3834	47.8572	64.396	62.2783	96.9831	70.1679	52.7468	43.9684	40.2015	36.8919	33.8671	31.804	28.9448	26.4824	24.4878	22.088	18.5414	12.9106	22.2791	17.7549	14.9746	11.327	3.62751	27.5166	18.4705	16.5084	13.947	13.2987	12.7433	11.2349	10.145	9.58483	8.83692	8.67641	7.63034	7.63786	6.72312	6.51488	5.84841	4.33568
0.116	210.714	188.442	169.497	151.48	135.774	118.047	100.577	105.746	137.787	120.682	99.5953	103.895	107.502	197.614	133.636	131.778	151.364	91.6355	48.7696	66.208	64.7543	102.271	73.954	54.9313	46.7838	42.3678	37.7055	35.446	33.2396	29.855	28.0918	25.6143	22.4232	19.8385	12.9652	22.9595	18.4107	15.3961	11.5329	3.96964	29.2646	19.8227	16.8685	15.0751	13.8676	12.9064	11.8541	11.1054	10.1225	9.44033	8.93513	8.36125	7.92501	7.04073	6.65808	6.29331	4.58804
0.119	218.701	196.685	178.546	160.623	139.499	123.407	105.147	110.76	145.045	124.905	96.0693	113.306	115.259	203.255	139.118	139.68	155.354	94.2488	51.8588	67.997	67.1212	107.248	77.0137	57.1878	48.874	43.7047	40.4831	38.2647	34.3824	31.4454	29.8624	26.7591	24.0081	21.2004	14.0983	24.3685	19.4083	16.2526	12.5256	4.28183	31.1802	20.8579	17.3015	15.5995	14.5514	12.9077	12.0495	11.2563	10.5412	10.0088	9.34245	9.14869	8.40757	7.32957	7.2305	6.4801	4.92978
0.122	226.969	204.943	184.41	164.093	145.871	126.979	109.096	117.498	151.384	129.861	95.2591	125.19	120.678	211.353	147.52	142.613	160.164	98.2342	54.1976	71.2058	68.5567	114.205	81.1141	60.7022	51.227	45.7277	42.5975	40.1032	36.0007	34.0116	30.7832	28.0089	25.0295	22.1992	14.3975	25.2734	19.8893	16.798	13.1442	4.72532	32.2526	21.4662	18.8778	16.3603	15.1598	14.3512	13.0801	11.8893	11.1518	9.87667	9.41396	9.11911	8.40155	8.17028	7.85855	6.77618	5.11604
0.125	238.02	212.923	193.009	173.958	153.216	133.355	114.228	123.803	158.131	133.027	93.854	134.65	126.788	215.03	155.74	149.783	166.984	100.779	56.6737	73.7156	71.5506	118.78	84.8938	62.9311	53.6273	49.1065	43.9229	41.3618	37.3276	34.7845	32.3629	29.0585	25.5577	22.6212	14.7001	26.5524	21.5337	17.9721	13.5745	4.73914	33.1305	22.7017	19.4206	17.3462	15.8918	14.68	13.8059	12.8232	11.3826	10.8802	10.3728	9.39231	8.89921	8.11141	7.86016	7.51911	5.32573
0.128	246.661	222.125	201.355	179.673	157.172	138.486	117.907	128.968	164.122	137.417	93.2384	143.413	134.1	230.915	164.63	156.488	173.194	105.286	59.3347	76.0925	73.1015	125.037	88.6858	66.2732	56.0848	51.163	46.3668	43.6272	39.3633	36.276	33.8741	31.1795	27.1474	24.1633	15.9491	27.1862	22.436	18.4735	14.0755	5.5977	34.7518	23.763	19.9968	18.111	17.0147	15.1502	13.977	13.1595	12.3829	11.2347	10.5802	10.0547	9.11284	8.75627	8.28344	7.57606	5.60599
0.131	254.566	232.31	209.684	186.066	163.424	143.347	121.921	136.52	168.59	142.942	99.3439	156.43	141.664	235.342	168.69	163.492	181.756	108.697	62.0153	78.3458	76.3306	129.306	91.5938	67.9745	58.8087	52.9135	48.2677	44.8453	40.1846	37.844	34.8793	32.1737	28.4691	25.4551	16.3915	28.9411	22.8212	19.4733	14.8571	6.08923	36.1013	24.7568	20.8128	18.7638	17.2681	16.4224	14.8053	13.6197	12.6497	12.4969	11.2448	10.5167	9.65823	9.29091	8.50468	8.14002	5.65273
0.134	264.338	239.152	215.602	191.785	169.652	148.681	125.976	143.998	174.059	142.539	108.328	167.202	150.302	246.226	174.554	169.83	183.854	112.496	64.5897	80.6698	77.1611	135.974	95.5928	72.5975	60.5747	55.424	50.9272	46.3872	43.7683	39.3517	36.4067	32.8722	29.3168	25.84	17.1024	29.6689	24.3219	20.3195	15.4855	6.46121	37.2292	25.3891	21.5568	19.2989	18.2445	16.9704	15.5362	14.3341	13.14	12.5368	11.3673	10.8755	9.95397	9.19148	9.06259	8.45818	5.89408
0.137	270.25	251.666	222.388	199.848	177.276	154.763	130.27	152.819	179.283	144.852	116.564	176.983	379.224	251.054	181.699	173.844	189.051	115.273	66.8745	83.3072	79.6474	144.282	99.781	74.8473	63.6623	57.765	51.3242	48.9025	45.2554	41.8465	38.3284	34.5392	30.9444	27.5695	17.9325	31.5835	25.0949	21.2104	15.8907	7.14218	39.2296	26.7398	22.583	20.6962	19.3752	18.0008	15.8087	14.8116	13.7456	12.6469	11.8332	11.019	10.5055	9.69644	9.26013	8.83283	6.1509
0.14	282.085	256.47	231.882	205.424	182.014	159.058	135.2	158.973	183.966	144.014	126.86	188.983	384.687	264.941	186.929	180.234	196.081	120.32	68.9332	85.663	81.1828	149.679	102.872	77.1255	65.577	60.1089	55.0309	50.9696	47.4762	43.5235	39.0307	35.7307	32.236	28.2526	18.3541	32.6671	26.4052	21.8446	16.3632	7.96693	40.9011	27.9723	23.5168	21.1407	19.7973	17.9337	16.7249	15.3755	13.9462	13.7508	12.3369	11.3506	11.3225	10.1975	9.66424	8.98527	6.36143
0.143	291.374	264.256	244.458	216.767	190.169	165.487	140.631	167.611	189.112	145.877	139.447	551.3	388.323	275.646	197.882	190.2	202.082	123.46	72.4967	88.6683	84.2617	155.438	108.246	80.9762	68.9999	62.0633	57.0419	52.6721	49.5133	44.6119	41.4563	37.9208	33.5874	29.1332	19.2366	33.8285	27.0681	23.0516	17.2909	8.45783	42.4605	29.2379	24.9873	22.2972	20.4876	19.1279	17.4399	16.549	15.1341	13.5085	12.7305	11.7445	11.4701	10.4509	9.99614	9.25889	6.431
0.146	304.394	277.726	247.414	222.778	194.682	169.416	144.886	176.576	190.947	148.153	152.039	547.854	397.692	277.398	201.688	198.178	207.77	127.139	76.0269	90.4127	85.9507	162.048	111.963	84.4641	71.3136	65.2178	59.969	56.3834	50.4673	46.4429	42.7153	38.6578	35.4821	30.6436	20.0479	36.2976	28.3068	24.2228	17.67	9.45732	44.2194	30.3021	25.8494	23.063	21.4341	19.9162	18.1034	16.4496	15.4995	14.5087	13.55	12.9992	11.7817	10.98	9.83696	9.41896	7.09204
0.149	311.342	284.425	256.469	228.825	202.89	175.577	149.147	183.418	198.789	147.723	165.76	550.471	409.157	288.27	210.634	201.907	212.925	130.059	76.773	93.6489	89.4041	167.812	116.375	88.515	74.8971	67.7325	62.3822	57.5638	52.5824	48.4344	44.8259	39.7184	37.0351	31.6792	20.7434	36.3473	29.8115	25.1682	18.4733	9.97074	45.2431	32.044	26.6954	23.8492	22.4687	20.2452	18.8835	17.1964	16.2365	14.9734	14.0848	13.1604	12.466	10.9487	11.0555	10.0072	7.61139
